Muestra(s),Nivel(cm)
1,9.00
2,9.01
3,8.87
4,8.73
5,8.60
6,8.47
7,8.34
8,8.21
9,8.08
10,7.95
11,7.82
12,7.69
13,7.56
14,7.43
15,7.30
16,7.17
17,7.04
18,6.91
19,6.78
20,6.65
21,6.52
22,6.39
23,6.26
24,6.13
25,6.00
26,5.87
27,5.74
28,5.61
29,5.48
30,5.35